# Gaussian folded, width=10 cm^-1
# [cm^-1] [(D/Å)^2 amu^-1]
800.000      1.43611e+00      9.00763e-01 
801.000      1.79653e+00      8.75857e-01 
802.000      2.12622e+00      8.53076e-01 
803.000      2.38068e+00      8.35492e-01 
804.000      2.52181e+00      8.25740e-01 
805.000      2.52721e+00      8.25366e-01 
806.000      2.39601e+00      8.34433e-01 
807.000      2.14908e+00      8.51496e-01 
808.000      1.82362e+00      8.73985e-01 
809.000      1.46398e+00      8.98837e-01 
810.000      1.11186e+00      9.23169e-01 
811.000      7.98890e-01      9.44796e-01 
812.000      5.43049e-01      9.62475e-01 
813.000      3.49228e-01      9.75868e-01 
814.000      2.12470e-01      9.85318e-01 
815.000      1.22293e-01      9.91549e-01 
816.000      6.65930e-02      9.95398e-01 
817.000      3.43076e-02      9.97629e-01 
818.000      1.67256e-02      9.98844e-01 
819.000      7.72709e-03      9.99466e-01 
820.000      3.41357e-03      9.99764e-01 
821.000      1.52296e-03      9.99895e-01 
822.000      8.82178e-04      9.99939e-01 
823.000      1.01063e-03      9.99930e-01 
824.000      1.89578e-03      9.99869e-01 
825.000      3.91435e-03      9.99730e-01 
826.000      7.85285e-03      9.99457e-01 
827.000      1.49674e-02      9.98966e-01 
828.000      2.70066e-02      9.98134e-01 
829.000      4.61056e-02      9.96814e-01 
830.000      7.44668e-02      9.94854e-01 
831.000      1.13786e-01      9.92137e-01 
832.000      1.64488e-01      9.88634e-01 
833.000      2.24956e-01      9.84455e-01 
834.000      2.91058e-01      9.79888e-01 
835.000      3.56268e-01      9.75381e-01 
836.000      4.12566e-01      9.71491e-01 
837.000      4.51987e-01      9.68767e-01 
838.000      4.68465e-01      9.67628e-01 
839.000      4.59352e-01      9.68258e-01 
840.000      4.26120e-01      9.70555e-01 
841.000      3.73969e-01      9.74158e-01 
842.000      3.10497e-01      9.78544e-01 
843.000      2.43891e-01      9.83147e-01 
844.000      1.81239e-01      9.87476e-01 
845.000      1.27417e-01      9.91195e-01 
846.000      8.47459e-02      9.94144e-01 
847.000      5.33246e-02      9.96315e-01 
848.000      3.17435e-02      9.97806e-01 
849.000      1.78772e-02      9.98765e-01 
850.000      9.52493e-03      9.99342e-01 
851.000      4.80111e-03      9.99668e-01 
852.000      2.28951e-03      9.99842e-01 
853.000      1.03297e-03      9.99929e-01 
854.000      4.41116e-04      9.99970e-01 
855.000      1.78908e-04      9.99988e-01 
856.000      7.08463e-05      9.99995e-01 
857.000      3.30853e-05      9.99998e-01 
858.000      3.24896e-05      9.99998e-01 
859.000      6.72853e-05      9.99995e-01 
860.000      1.64803e-04      9.99989e-01 
861.000      3.94910e-04      9.99973e-01 
862.000      9.00907e-04      9.99938e-01 
863.000      1.95125e-03      9.99865e-01 
864.000      4.01413e-03      9.99723e-01 
865.000      7.85154e-03      9.99457e-01 
866.000      1.46204e-02      9.98990e-01 
867.000      2.59577e-02      9.98206e-01 
868.000      4.40179e-02      9.96958e-01 
869.000      7.14295e-02      9.95064e-01 
870.000      1.11140e-01      9.92320e-01 
871.000      1.66123e-01      9.88521e-01 
872.000      2.38932e-01      9.83490e-01 
873.000      3.31073e-01      9.77122e-01 
874.000      4.42221e-01      9.69442e-01 
875.000      5.69352e-01      9.60657e-01 
876.000      7.06020e-01      9.51213e-01 
877.000      8.42109e-01      9.41809e-01 
878.000      9.64459e-01      9.33355e-01 
879.000      1.05858e+00      9.26851e-01 
880.000      1.11129e+00      9.23208e-01 
881.000      1.11375e+00      9.23039e-01 
882.000      1.06382e+00      9.26489e-01 
883.000      9.67028e-01      9.33177e-01 
884.000      8.35532e-01      9.42264e-01 
885.000      6.85494e-01      9.52632e-01 
886.000      5.33589e-01      9.63128e-01 
887.000      3.93816e-01      9.72787e-01 
888.000      2.75449e-01      9.80966e-01 
889.000      1.82506e-01      9.87389e-01 
890.000      1.14517e-01      9.92087e-01 
891.000      6.80326e-02      9.95299e-01 
892.000      3.82596e-02      9.97356e-01 
893.000      2.03655e-02      9.98593e-01 
894.000      1.02623e-02      9.99291e-01 
895.000      4.90231e-03      9.99661e-01 
896.000      2.24059e-03      9.99845e-01 
897.000      1.03419e-03      9.99929e-01 
898.000      6.13250e-04      9.99958e-01 
899.000      6.98972e-04      9.99952e-01 
900.000      1.29689e-03      9.99910e-01 
901.000      2.66374e-03      9.99816e-01 
902.000      5.32826e-03      9.99632e-01 
903.000      1.01329e-02      9.99300e-01 
904.000      1.82492e-02      9.98739e-01 
905.000      3.11107e-02      9.97850e-01 
906.000      5.02105e-02      9.96530e-01 
907.000      7.67490e-02      9.94697e-01 
908.000      1.11181e-01      9.92317e-01 
909.000      1.52802e-01      9.89441e-01 
910.000      1.99566e-01      9.86210e-01 
911.000      2.48332e-01      9.82840e-01 
912.000      2.95571e-01      9.79576e-01 
913.000      3.38418e-01      9.76615e-01 
914.000      3.75661e-01      9.74041e-01 
915.000      4.08230e-01      9.71791e-01 
916.000      4.38820e-01      9.69677e-01 
917.000      4.70638e-01      9.67478e-01 
918.000      5.05652e-01      9.65059e-01 
919.000      5.43054e-01      9.62474e-01 
920.000      5.78647e-01      9.60015e-01 
921.000      6.05565e-01      9.58155e-01 
922.000      6.16162e-01      9.57422e-01 
923.000      6.04428e-01      9.58233e-01 
924.000      5.68013e-01      9.60750e-01 
925.000      5.09118e-01      9.64819e-01 
926.000      4.33962e-01      9.70013e-01 
927.000      3.51124e-01      9.75737e-01 
928.000      2.69425e-01      9.81382e-01 
929.000      1.96119e-01      9.86448e-01 
930.000      1.35908e-01      9.90609e-01 
931.000      9.09618e-02      9.93714e-01 
932.000      6.17913e-02      9.95730e-01 
933.000      4.86273e-02      9.96640e-01 
934.000      5.29640e-02      9.96340e-01 
935.000      7.89337e-02      9.94546e-01 
936.000      1.34189e-01      9.90727e-01 
937.000      2.29900e-01      9.84114e-01 
938.000      3.79425e-01      9.73781e-01 
939.000      5.95332e-01      9.58862e-01 
940.000      8.84872e-01      9.38854e-01 
941.000      1.24472e+00      9.13988e-01 
942.000      1.65660e+00      8.85527e-01 
943.000      2.08591e+00      8.55861e-01 
944.000      2.48481e+00      8.28297e-01 
945.000      2.80032e+00      8.06494e-01 
946.000      2.98566e+00      7.93687e-01 
947.000      3.01156e+00      7.91897e-01 
948.000      2.87382e+00      8.01415e-01 
949.000      2.59446e+00      8.20720e-01 
950.000      2.21590e+00      8.46879e-01 
951.000      1.79049e+00      8.76275e-01 
952.000      1.36871e+00      9.05421e-01 
953.000      9.89843e-01      9.31601e-01 
954.000      6.77237e-01      9.53202e-01 
955.000      4.38361e-01      9.69709e-01 
956.000      2.68436e-01      9.81451e-01 
957.000      1.55514e-01      9.89254e-01 
958.000      8.52340e-02      9.94110e-01 
959.000      4.41952e-02      9.96946e-01 
960.000      2.16798e-02      9.98502e-01 
961.000      1.00616e-02      9.99305e-01 
962.000      4.41855e-03      9.99695e-01 
963.000      1.83857e-03      9.99873e-01 
964.000      7.32451e-04      9.99949e-01 
965.000      3.01172e-04      9.99979e-01 
966.000      1.85088e-04      9.99987e-01 
967.000      2.66928e-04      9.99982e-01 
968.000      5.87935e-04      9.99959e-01 
969.000      1.34498e-03      9.99907e-01 
970.000      2.94848e-03      9.99796e-01 
971.000      6.12519e-03      9.99577e-01 
972.000      1.20408e-02      9.99168e-01 
973.000      2.23935e-02      9.98453e-01 
974.000      3.94018e-02      9.97277e-01 
975.000      6.55907e-02      9.95468e-01 
976.000      1.03304e-01      9.92862e-01 
977.000      1.53944e-01      9.89362e-01 
978.000      2.17091e-01      9.84999e-01 
979.000      2.89780e-01      9.79976e-01 
980.000      3.66324e-01      9.74687e-01 
981.000      4.39022e-01      9.69663e-01 
982.000      4.99830e-01      9.65461e-01 
983.000      5.42769e-01      9.62494e-01 
984.000      5.66472e-01      9.60856e-01 
985.000      5.76095e-01      9.60191e-01 
986.000      5.83873e-01      9.59654e-01 
987.000      6.07865e-01      9.57996e-01 
988.000      6.68848e-01      9.53782e-01 
989.000      7.85736e-01      9.45705e-01 
990.000      9.70352e-01      9.32947e-01 
991.000      1.22274e+00      9.15507e-01 
992.000      1.52849e+00      8.94379e-01 
993.000      1.85934e+00      8.71517e-01 
994.000      2.17785e+00      8.49507e-01 
995.000      2.44561e+00      8.31006e-01 
996.000      2.63280e+00      8.18070e-01 
997.000      2.72641e+00      8.11602e-01 
998.000      2.73356e+00      8.11108e-01 
999.000      2.67869e+00      8.14899e-01 
1000.000      2.59491e+00      8.20689e-01 
1001.000      2.51248e+00      8.26384e-01 
1002.000      2.44889e+00      8.30779e-01 
1003.000      2.40396e+00      8.33884e-01 
1004.000      2.36184e+00      8.36794e-01 
1005.000      2.29889e+00      8.41144e-01 
1006.000      2.19383e+00      8.48403e-01 
1007.000      2.03646e+00      8.59278e-01 
1008.000      1.83143e+00      8.73446e-01 
1009.000      1.59636e+00      8.89690e-01 
1010.000      1.35559e+00      9.06327e-01 
1011.000      1.13237e+00      9.21752e-01 
1012.000      9.42568e-01      9.34867e-01 
1013.000      7.91741e-01      9.45290e-01 
1014.000      6.76037e-01      9.53285e-01 
1015.000      5.85749e-01      9.59524e-01 
1016.000      5.09771e-01      9.64774e-01 
1017.000      4.39284e-01      9.69645e-01 
1018.000      3.69647e-01      9.74457e-01 
1019.000      3.00408e-01      9.79241e-01 
1020.000      2.33967e-01      9.83833e-01 
1021.000      1.73748e-01      9.87994e-01 
1022.000      1.22642e-01      9.91525e-01 
1023.000      8.21264e-02      9.94325e-01 
1024.000      5.21138e-02      9.96399e-01 
1025.000      3.13154e-02      9.97836e-01 
1026.000      1.78124e-02      9.98769e-01 
1027.000      9.58845e-03      9.99337e-01 
1028.000      4.88399e-03      9.99663e-01 
1029.000      2.35379e-03      9.99837e-01 
1030.000      1.07327e-03      9.99926e-01 
1031.000      4.63013e-04      9.99968e-01 
1032.000      1.89028e-04      9.99987e-01 
1033.000      7.32158e-05      9.99995e-01 
1034.000      2.76080e-05      9.99998e-01 
1035.000      1.26241e-05      9.99999e-01 
1036.000      1.45528e-05      9.99999e-01 
1037.000      3.78533e-05      9.99997e-01 
1038.000      1.12019e-04      9.99992e-01 
1039.000      3.20038e-04      9.99978e-01 
1040.000      8.66748e-04      9.99940e-01 
1041.000      2.22119e-03      9.99847e-01 
1042.000      5.38523e-03      9.99628e-01 
1043.000      1.23521e-02      9.99146e-01 
1044.000      2.68038e-02      9.98148e-01 
1045.000      5.50261e-02      9.96198e-01 
1046.000      1.06871e-01      9.92615e-01 
1047.000      1.96366e-01      9.86431e-01 
1048.000      3.41344e-01      9.76413e-01 
1049.000      5.61351e-01      9.61210e-01 
1050.000      8.73363e-01      9.39649e-01 
1051.000      1.28550e+00      9.11170e-01 
1052.000      1.79006e+00      8.76304e-01 
1053.000      2.35821e+00      8.37045e-01 
1054.000      2.93909e+00      7.96905e-01 
1055.000      3.46546e+00      7.60532e-01 
1056.000      3.86569e+00      7.32876e-01 
1057.000      4.07953e+00      7.18099e-01 
1058.000      4.07298e+00      7.18552e-01 
1059.000      3.84708e+00      7.34162e-01 
1060.000      3.43770e+00      7.62450e-01 
1061.000      2.90620e+00      7.99178e-01 
1062.000      2.32439e+00      8.39382e-01 
1063.000      1.75888e+00      8.78459e-01 
1064.000      1.25941e+00      9.12973e-01 
1065.000      8.53711e-01      9.41007e-01 
1066.000      5.48704e-01      9.62084e-01 
1067.000      3.36097e-01      9.76775e-01 
1068.000      1.99422e-01      9.86220e-01 
1069.000      1.20248e-01      9.91691e-01 
1070.000      8.22738e-02      9.94315e-01 
1071.000      7.30987e-02      9.94949e-01 
1072.000      8.41511e-02      9.94185e-01 
1073.000      1.09562e-01      9.92429e-01 
1074.000      1.44718e-01      9.90000e-01 
1075.000      1.85075e-01      9.87211e-01 
1076.000      2.25576e-01      9.84412e-01 
1077.000      2.60796e-01      9.81979e-01 
1078.000      2.85702e-01      9.80258e-01 
1079.000      2.96695e-01      9.79498e-01 
1080.000      2.92524e-01      9.79786e-01 
1081.000      2.74690e-01      9.81019e-01 
1082.000      2.47136e-01      9.82923e-01 
1083.000      2.15309e-01      9.85122e-01 
1084.000      1.84850e-01      9.87227e-01 
1085.000      1.60323e-01      9.88922e-01 
1086.000      1.44314e-01      9.90028e-01 
1087.000      1.37111e-01      9.90525e-01 
1088.000      1.36983e-01      9.90534e-01 
1089.000      1.40949e-01      9.90260e-01 
1090.000      1.45828e-01      9.89923e-01 
1091.000      1.49285e-01      9.89684e-01 
1092.000      1.50669e-01      9.89589e-01 
1093.000      1.51409e-01      9.89537e-01 
1094.000      1.54874e-01      9.89298e-01 
1095.000      1.65675e-01      9.88552e-01 
1096.000      1.88511e-01      9.86974e-01 
1097.000      2.26746e-01      9.84332e-01 
1098.000      2.81050e-01      9.80579e-01 
1099.000      3.48449e-01      9.75922e-01 
1100.000      4.22166e-01      9.70828e-01 
1101.000      4.92478e-01      9.65969e-01 
1102.000      5.48532e-01      9.62096e-01 
1103.000      5.80738e-01      9.59870e-01 
1104.000      5.83060e-01      9.59710e-01 
1105.000      5.54480e-01      9.61685e-01 
1106.000      4.99160e-01      9.65507e-01 
1107.000      4.25249e-01      9.70615e-01 
1108.000      3.42792e-01      9.76313e-01 
1109.000      2.61438e-01      9.81934e-01 
1110.000      1.88644e-01      9.86964e-01 
1111.000      1.28779e-01      9.91101e-01 
1112.000      8.31741e-02      9.94253e-01 
1113.000      5.08333e-02      9.96487e-01 
1114.000      2.94257e-02      9.97967e-01 
1115.000      1.62102e-02      9.98880e-01 
1116.000      8.70239e-03      9.99399e-01 
1117.000      5.05646e-03      9.99651e-01 
1118.000      4.24419e-03      9.99707e-01 
1119.000      6.15677e-03      9.99575e-01 
1120.000      1.17341e-02      9.99189e-01 
1121.000      2.31626e-02      9.98399e-01 
1122.000      4.40896e-02      9.96953e-01 
1123.000      7.96962e-02      9.94493e-01 
1124.000      1.36388e-01      9.90575e-01 
1125.000      2.20849e-01      9.84739e-01 
1126.000      3.38337e-01      9.76621e-01 
1127.000      4.90376e-01      9.66114e-01 
1128.000      6.72421e-01      9.53535e-01 
1129.000      8.72374e-01      9.39718e-01 
1130.000      1.07089e+00      9.26000e-01 
1131.000      1.24405e+00      9.14035e-01 
1132.000      1.36812e+00      9.05461e-01 
1133.000      1.42529e+00      9.01511e-01 
1134.000      1.40860e+00      9.02664e-01 
1135.000      1.32444e+00      9.08479e-01 
1136.000      1.19168e+00      9.17654e-01 
1137.000      1.03760e+00      9.28301e-01 
1138.000      8.91922e-01      9.38367e-01 
1139.000      7.80532e-01      9.46064e-01 
1140.000      7.20406e-01      9.50219e-01 
1141.000      7.16740e-01      9.50472e-01 
1142.000      7.62587e-01      9.47304e-01 
1143.000      8.40854e-01      9.41896e-01 
1144.000      9.28199e-01      9.35860e-01 
1145.000      1.00008e+00      9.30893e-01 
1146.000      1.03595e+00      9.28415e-01 
1147.000      1.02337e+00      9.29284e-01 
1148.000      9.60171e-01      9.33651e-01 
1149.000      8.53893e-01      9.40995e-01 
1150.000      7.19074e-01      9.50311e-01 
1151.000      5.73130e-01      9.60396e-01 
1152.000      4.32262e-01      9.70130e-01 
1153.000      3.08477e-01      9.78684e-01 
1154.000      2.08318e-01      9.85605e-01 
1155.000      1.33214e-01      9.90795e-01 
1156.000      8.09113e-02      9.94409e-01 
1157.000      4.72908e-02      9.96732e-01 
1158.000      2.80327e-02      9.98063e-01 
1159.000      1.98554e-02      9.98628e-01 
1160.000      2.13163e-02      9.98527e-01 
1161.000      3.32777e-02      9.97700e-01 
1162.000      5.91136e-02      9.95915e-01 
1163.000      1.04600e-01      9.92772e-01 
1164.000      1.77284e-01      9.87749e-01 
1165.000      2.85078e-01      9.80301e-01 
1166.000      4.33971e-01      9.70012e-01 
1167.000      6.25086e-01      9.56806e-01 
1168.000      8.51826e-01      9.41138e-01 
1169.000      1.09820e+00      9.24113e-01 
1170.000      1.33947e+00      9.07441e-01 
1171.000      1.54562e+00      8.93196e-01 
1172.000      1.68728e+00      8.83407e-01 
1173.000      1.74258e+00      8.79586e-01 
1174.000      1.70260e+00      8.82348e-01 
1175.000      1.57381e+00      8.91248e-01 
1176.000      1.37628e+00      9.04897e-01 
1177.000      1.13863e+00      9.21319e-01 
1178.000      8.91197e-01      9.38417e-01 
1179.000      6.59907e-01      9.54400e-01 
1180.000      4.62285e-01      9.68056e-01 
1181.000      3.06375e-01      9.78829e-01 
1182.000      1.92095e-01      9.86726e-01 
1183.000      1.13945e-01      9.92126e-01 
1184.000      6.39430e-02      9.95581e-01 
1185.000      3.39475e-02      9.97654e-01 
1186.000      1.70506e-02      9.98822e-01 
1187.000      8.10196e-03      9.99440e-01 
1188.000      3.64215e-03      9.99748e-01 
1189.000      1.54897e-03      9.99893e-01 
1190.000      6.23236e-04      9.99957e-01 
1191.000      2.37271e-04      9.99984e-01 
1192.000      8.56096e-05      9.99994e-01 
1193.000      2.98207e-05      9.99998e-01 
1194.000      1.20652e-05      9.99999e-01 
1195.000      1.23795e-05      9.99999e-01 
1196.000      3.27580e-05      9.99998e-01 
1197.000      1.01569e-04      9.99993e-01 
1198.000      3.04339e-04      9.99979e-01 
1199.000      8.64330e-04      9.99940e-01 
1200.000      2.32268e-03      9.99839e-01 
1201.000      5.90511e-03      9.99592e-01 
1202.000      1.42033e-02      9.99019e-01 
1203.000      3.23201e-02      9.97767e-01 
1204.000      6.95799e-02      9.95192e-01 
1205.000      1.41718e-01      9.90207e-01 
1206.000      2.73087e-01      9.81129e-01 
1207.000      4.97873e-01      9.65596e-01 
1208.000      8.58790e-01      9.40657e-01 
1209.000      1.40158e+00      9.03149e-01 
1210.000      2.16438e+00      8.50439e-01 
1211.000      3.16266e+00      7.81456e-01 
1212.000      4.37335e+00      6.97796e-01 
1213.000      5.72353e+00      6.04497e-01 
1214.000      7.09034e+00      5.10048e-01 
1215.000      8.31602e+00      4.25352e-01 
1216.000      9.23706e+00      3.61708e-01 
1217.000      9.72058e+00      3.28296e-01 
1218.000      9.69671e+00      3.29945e-01 
1219.000      9.17583e+00      3.65938e-01 
1220.000      8.24478e+00      4.30275e-01 
1221.000      7.04343e+00      5.13290e-01 
1222.000      5.73044e+00      6.04019e-01 
1223.000      4.44949e+00      6.92534e-01 
1224.000      3.30581e+00      7.71564e-01 
1225.000      2.35725e+00      8.37111e-01 
1226.000      1.61858e+00      8.88154e-01 
1227.000      1.07377e+00      9.25801e-01 
1228.000      6.90275e-01      9.52301e-01 
1229.000      4.30951e-01      9.70221e-01 
1230.000      2.61670e-01      9.81918e-01 
1231.000      1.54832e-01      9.89301e-01 
1232.000      9.00351e-02      9.93778e-01 
1233.000      5.33369e-02      9.96314e-01 
1234.000      3.61286e-02      9.97503e-01 
1235.000      3.41579e-02      9.97640e-01 
1236.000      4.68136e-02      9.96765e-01 
1237.000      7.65294e-02      9.94712e-01 
1238.000      1.28029e-01      9.91153e-01 
1239.000      2.07113e-01      9.85688e-01 
1240.000      3.18812e-01      9.77970e-01 
1241.000      4.65001e-01      9.67868e-01 
1242.000      6.41956e-01      9.55640e-01 
1243.000      8.38712e-01      9.42044e-01 
1244.000      1.03717e+00      9.28330e-01 
1245.000      1.21458e+00      9.16071e-01 
1246.000      1.34837e+00      9.06826e-01 
1247.000      1.42220e+00      9.01724e-01 
1248.000      1.43178e+00      9.01062e-01 
1249.000      1.38846e+00      9.04056e-01 
1250.000      1.31945e+00      9.08825e-01 
1251.000      1.26434e+00      9.12632e-01 
1252.000      1.26838e+00      9.12354e-01 
1253.000      1.37363e+00      9.05081e-01 
1254.000      1.60955e+00      8.88778e-01 
1255.000      1.98453e+00      8.62866e-01 
1256.000      2.48040e+00      8.28601e-01 
